# l : wavelength
# s : sigma
#end
2000 1.30891
2010 1.27841
2020 1.2487
2030 1.21976
2040 1.19156
2050 1.1641
2060 1.13733
2070 1.11126
2080 1.08585
2090 1.06109
2100 1.03696
2110 1.01344
2120 0.990522
2130 0.968182
2140 0.946407
2150 0.925181
2160 0.904488
2170 0.884315
2180 0.864646
2190 0.84547
2200 0.826771
2210 0.808537
2220 0.790756
2230 0.773416
2240 0.756504
2250 0.740009
2260 0.72392
2270 0.708226
2280 0.692916
2290 0.677981
2300 0.66341
2310 0.649194
2320 0.635322
2330 0.621787
2340 0.608579
2350 0.59569
2360 0.583111
2370 0.570834
2380 0.558851
2390 0.547154
2400 0.535737
2410 0.524591
2420 0.51371
2430 0.503087
2440 0.492715
2450 0.482587
2460 0.472698
2470 0.463041
2480 0.453611
2490 0.444401
2500 0.435405
2510 0.426619
2520 0.418037
2530 0.409654
2540 0.401464
2550 0.393463
2560 0.385647
2570 0.37801
2580 0.370547
2590 0.363255
2600 0.35613
2610 0.349166
2620 0.342361
2630 0.335709
2640 0.329208
2650 0.322853
2660 0.316642
2670 0.310569
2680 0.304633
2690 0.298829
2700 0.293154
2710 0.287605
2720 0.28218
2730 0.276874
2740 0.271686
2750 0.266612
2760 0.261649
2770 0.256795
2780 0.252047
2790 0.247403
2800 0.24286
2810 0.238415
2820 0.234067
2830 0.229813
2840 0.22565
2850 0.221577
2860 0.217592
2870 0.213692
2880 0.209875
2890 0.206139
2900 0.202483
2910 0.198904
2920 0.195401
2930 0.191973
2940 0.188616
2950 0.18533
2960 0.182112
2970 0.178962
2980 0.175878
2990 0.172858
3000 0.1699
3010 0.167004
3020 0.164168
3030 0.16139
3040 0.158669
3050 0.156004
3060 0.153394
3070 0.150837
3080 0.148332
3090 0.145878
3100 0.143474
3110 0.141118
3120 0.13881
3130 0.136548
3140 0.134332
3150 0.13216
3160 0.130032
3170 0.127946
3180 0.125901
3190 0.123898
3200 0.121933
3210 0.120008
3220 0.118121
3230 0.11627
3240 0.114456
3250 0.112678
3260 0.110934
3270 0.109224
3280 0.107547
3290 0.105903
3300 0.104291
3310 0.10271
3320 0.101159
3330 0.0996377
3340 0.0981458
3350 0.0966824
3360 0.0952469
3370 0.0938387
3380 0.0924573
3390 0.091102
3400 0.0897723
3410 0.0884676
3420 0.0871875
3430 0.0859313
3440 0.0846987
3450 0.0834891
3460 0.082302
3470 0.081137
3480 0.0799936
3490 0.0788713
3500 0.0777698
3510 0.0766885
3520 0.0756271
3530 0.0745851
3540 0.0735622
3550 0.0725579
3560 0.071572
3570 0.0706039
3580 0.0696534
3590 0.06872
3600 0.0678035
3610 0.0669035
3620 0.0660196
3630 0.0651516
3640 0.0642991
3650 0.0634618
3660 0.0626394
3670 0.0618316
3680 0.0610382
3690 0.0602587
3700 0.059493
3710 0.0587408
3720 0.0580018
3730 0.0572758
3740 0.0565624
3750 0.0558615
3760 0.0551729
3770 0.0544961
3780 0.0538312
3790 0.0531777
3800 0.0525355
3810 0.0519044
3820 0.0512841
3830 0.0506745
3840 0.0500753
3850 0.0494864
3860 0.0489075
3870 0.0483385
3880 0.0477792
3890 0.0472293
3900 0.0466887
3910 0.0461573
3920 0.0456349
3930 0.0451212
3940 0.0446162
3950 0.0441196
3960 0.0436313
3970 0.0431513
3980 0.0426792
3990 0.0422149
4000 0.0417584
4010 0.0413095
4020 0.040868
4030 0.0404338
4040 0.0400068
4050 0.0395868
4060 0.0391737
4070 0.0387674
4080 0.0383677
4090 0.0379746
4100 0.037588
4110 0.0372076
4120 0.0368335
4130 0.0364654
4140 0.0361033
4150 0.0357471
4160 0.0353967
4170 0.0350519
4180 0.0347127
4190 0.034379
4200 0.0340507
4210 0.0337277
4220 0.0334098
4230 0.0330971
4240 0.0327894
4250 0.0324866
4260 0.0321887
4270 0.0318955
4280 0.0316071
4290 0.0313232
4300 0.0310439
4310 0.030769
4320 0.0304985
4330 0.0302323
4340 0.0299704
4350 0.0297126
4360 0.0294589
4370 0.0292093
4380 0.0289636
4390 0.0287218
4400 0.0284838
4410 0.0282497
4420 0.0280192
4430 0.0277924
4440 0.0275692
4450 0.0273495
4460 0.0271333
4470 0.0269206
4480 0.0267112
4490 0.0265051
4500 0.0263023
4510 0.0261027
4520 0.0259063
4530 0.025713
4540 0.0255228
4550 0.0253356
4560 0.0251514
4570 0.0249701
4580 0.0247917
4590 0.0246162
4600 0.0244434
4610 0.0242734
4620 0.0241062
4630 0.0239416
4640 0.0237796
4650 0.0236203
4660 0.0234635
4670 0.0233093
4680 0.0231575
4690 0.0230083
4700 0.0228614
4710 0.0227169
4720 0.0225748
4730 0.022435
4740 0.0222974
4750 0.0221622
4760 0.0220291
4770 0.0218983
4780 0.0217696
4790 0.0216431
4800 0.0215187
4810 0.0213963
4820 0.0212761
4830 0.0211578
4840 0.0210415
4850 0.0209272
4860 0.0208149
4870 0.0207045
4880 0.020596
4890 0.0204894
4900 0.0203846
4910 0.0202816
4920 0.0201805
4930 0.0200811
4940 0.0199835
4950 0.0198877
4960 0.0197936
4970 0.0197011
4980 0.0196104
4990 0.0195213
5000 0.0194339
5010 0.0193481
5020 0.0192639
5030 0.0191813
5040 0.0191003
5050 0.0190208
5060 0.0189429
5070 0.0188665
5080 0.0187916
5090 0.0187182
5100 0.0186462
5110 0.0185758
5120 0.0185068
5130 0.0184392
5140 0.018373
5150 0.0183082
5160 0.0182449
5170 0.0181829
5180 0.0181223
5190 0.018063
5200 0.0180051
5210 0.0179485
5220 0.0178932
5230 0.0178393
5240 0.0177866
5250 0.0177352
5260 0.0176851
5270 0.0176363
5280 0.0175887
5290 0.0175424
5300 0.0174973
5310 0.0174535
5320 0.0174108
5330 0.0173694
5340 0.0173292
5350 0.0172902
5360 0.0172524
5370 0.0172157
5380 0.0171802
5390 0.0171459
5400 0.0171128
5410 0.0170808
5420 0.01705
5430 0.0170203
5440 0.0169917
5450 0.0169643
5460 0.016938
5470 0.0169128
5480 0.0168887
5490 0.0168658
5500 0.0168439
5510 0.0168232
5520 0.0168035
5530 0.016785
5540 0.0167675
5550 0.0167511
5560 0.0167358
5570 0.0167216
5580 0.0167085
5590 0.0166964
5600 0.0166854
5610 0.0166755
5620 0.0166667
5630 0.0166589
5640 0.0166522
5650 0.0166466
5660 0.016642
5670 0.0166385
5680 0.016636
5690 0.0166346
5700 0.0166343
5710 0.016635
5720 0.0166368
5730 0.0166397
5740 0.0166436
5750 0.0166486
5760 0.0166547
5770 0.0166618
5780 0.01667
5790 0.0166792
5800 0.0166895
5810 0.0167009
5820 0.0167134
5830 0.016727
5840 0.0167416
5850 0.0167573
5860 0.0167741
5870 0.016792
5880 0.016811
5890 0.016831
5900 0.0168522
5910 0.0168745
5920 0.0168979
5930 0.0169224
5940 0.016948
5950 0.0169747
5960 0.0170026
5970 0.0170316
5980 0.0170617
5990 0.017093
6000 0.0171255
6010 0.017159
6020 0.0171938
6030 0.0172297
6040 0.0172668
6050 0.0173051
6060 0.0173446
6070 0.0173853
6080 0.0174272
6090 0.0174703
6100 0.0175146
6110 0.0175602
6120 0.017607
6130 0.017655
6140 0.0177043
6150 0.0177549
6160 0.0178068
6170 0.0178599
6180 0.0179144
6190 0.0179702
6200 0.0180273
6210 0.0180857
6220 0.0181455
6230 0.0182067
6240 0.0182692
6250 0.0183331
6260 0.0183984
6270 0.0184651
6280 0.0185332
6290 0.0186028
6300 0.0186738
6310 0.0187463
6320 0.0188203
6330 0.0188958
6340 0.0189728
6350 0.0190513
6360 0.0191314
6370 0.019213
6380 0.0192962
6390 0.019381
6400 0.0194675
6410 0.0195555
6420 0.0196452
6430 0.0197366
6440 0.0198297
6450 0.0199245
6460 0.020021
6470 0.0201193
6480 0.0202193
6490 0.0203211
6500 0.0204248
6510 0.0205303
6520 0.0206376
6530 0.0207469
6540 0.020858
6550 0.0209711
6560 0.0210862
6570 0.0212032
6580 0.0213222
6590 0.0214433
6600 0.0215665
6610 0.0216917
6620 0.0218191
6630 0.0219486
6640 0.0220802
6650 0.0222141
6660 0.0223503
6670 0.0224887
6680 0.0226294
6690 0.0227724
6700 0.0229178
6710 0.0230656
6720 0.0232158
6730 0.0233685
6740 0.0235238
6750 0.0236815
6760 0.0238418
6770 0.0240048
6780 0.0241704
6790 0.0243387
6800 0.0245098
6810 0.0246836
6820 0.0248602
6830 0.0250397
6840 0.0252221
6850 0.0254075
6860 0.0255959
6870 0.0257873
6880 0.0259818
6890 0.0261794
6900 0.0263802
6910 0.0265843
6920 0.0267916
6930 0.0270023
6940 0.0272164
6950 0.0274339
6960 0.0276549
6970 0.0278795
6980 0.0281077
6990 0.0283396
7000 0.0285752
7010 0.0288147
7020 0.029058
7030 0.0293052
7040 0.0295564
7050 0.0298116
7060 0.030071
7070 0.0303346
7080 0.0306024
7090 0.0308746
7100 0.0311512
7110 0.0314322
7120 0.0317179
7130 0.0320081
7140 0.0323031
7150 0.0326029
7160 0.0329076
7170 0.0332172
7180 0.0335319
7190 0.0338517
7200 0.0341768
7210 0.0345072
7220 0.034843
7230 0.0351843
7240 0.0355313
7250 0.0358839
7260 0.0362424
7270 0.0366067
7280 0.0369771
7290 0.0373537
7300 0.0377365
7310 0.0381256
7320 0.0385212
7330 0.0389234
7340 0.0393323
7350 0.039748
7360 0.0401707
7370 0.0406005
7380 0.0410375
7390 0.0414819
7400 0.0419337
7410 0.0423932
7420 0.0428605
7430 0.0433356
7440 0.0438188
7450 0.0443103
7460 0.0448101
7470 0.0453184
7480 0.0458355
7490 0.0463614
7500 0.0468963
7510 0.0474404
7520 0.0479939
7530 0.048557
7540 0.0491298
7550 0.0497125
7560 0.0503054
7570 0.0509086
7580 0.0515223
7590 0.0521467
7600 0.0527821
7610 0.0534286
7620 0.0540865
7630 0.0547559
7640 0.0554373
7650 0.0561306
7660 0.0568363
7670 0.0575545
7680 0.0582855
7690 0.0590296
7700 0.059787
7710 0.0605579
7720 0.0613428
7730 0.0621417
7740 0.0629551
7750 0.0637832
7760 0.0646264
7770 0.0654848
7780 0.0663589
7790 0.067249
7800 0.0681553
7810 0.0690783
7820 0.0700182
7830 0.0709755
7840 0.0719504
7850 0.0729434
7860 0.0739548
7870 0.074985
7880 0.0760344
7890 0.0771035
7900 0.0781925
7910 0.079302
7920 0.0804324
7930 0.0815841
7940 0.0827576
7950 0.0839533
7960 0.0851718
7970 0.0864134
7980 0.0876787
7990 0.0889683
8000 0.0902825
8010 0.091622
8020 0.0929874
8030 0.0943791
8040 0.0957978
8050 0.0972439
8060 0.0987183
8070 0.100221
8080 0.101754
8090 0.103316
8100 0.104909
8110 0.106534
8120 0.108191
8130 0.10988
8140 0.111603
8150 0.11336
8160 0.115152
8170 0.11698
8180 0.118845
8190 0.120747
8200 0.122687
8210 0.124666
8220 0.126686
8230 0.128746
8240 0.130848
8250 0.132993
8260 0.135182
8270 0.137416
8280 0.139695
8290 0.142022
8300 0.144396
8310 0.146819
8320 0.149293
8330 0.151818
8340 0.154395
8350 0.157026
8360 0.159713
8370 0.162455
8380 0.165256
8390 0.168115
8400 0.171034
8410 0.174016
8420 0.177061
8430 0.18017
8440 0.183346
8450 0.18659
8460 0.189903
8470 0.193287
8480 0.196745
8490 0.200277
8500 0.203885
8510 0.207572
8520 0.211338
8530 0.215187
8540 0.21912
8550 0.223139
8560 0.227246
8570 0.231444
8580 0.235734
8590 0.240119
8600 0.244602
8610 0.249184
8620 0.253867
8630 0.258656
8640 0.263552
8650 0.268557
8660 0.273675
8670 0.278908
8680 0.28426
8690 0.289732
8700 0.295329
8710 0.301053
8720 0.306908
8730 0.312897
8740 0.319023
8750 0.325289
8760 0.3317
8770 0.338259
8780 0.344969
8790 0.351835
8800 0.358861
8810 0.36605
8820 0.373407
8830 0.380936
8840 0.388642
8850 0.39653
8860 0.404603
8870 0.412866
8880 0.421326
8890 0.429986
8900 0.438852
8910 0.44793
8920 0.457224
8930 0.466742
8940 0.476488
8950 0.486468
8960 0.496689
8970 0.507157
8980 0.517879
8990 0.528862
9000 0.540111
9010 0.551635
9020 0.563442
9030 0.575537
9040 0.58793
9050 0.600628
9060 0.613639
9070 0.626972
9080 0.640636
9090 0.65464
9100 0.668992
9110 0.683702
9120 0.698781
9130 0.714238
9140 0.730083
9150 0.746327
9160 0.762982
9170 0.780058
9180 0.797567
9190 0.815521
9200 0.833933
